freq,psd_x,psd_y,psd_z,psd_xyz
0.0,1.600e+03,2.022e+01,3.246e+01,1.653e+03
1.5,9.464e+02,4.426e+01,6.139e+01,1.052e+03
3.1,8.314e+01,3.853e+01,4.854e+01,1.702e+02
4.6,5.807e+02,4.147e+01,4.430e+01,6.665e+02
6.1,2.159e+03,4.746e+01,4.150e+01,2.248e+03
7.6,3.570e+03,5.054e+01,4.268e+01,3.663e+03
9.2,5.181e+03,5.247e+01,4.282e+01,5.277e+03
10.7,7.337e+03,5.990e+01,4.519e+01,7.442e+03
12.2,9.932e+03,6.347e+01,4.830e+01,1.004e+04
13.8,1.102e+04,7.576e+01,4.707e+01,1.114e+04
15.3,1.156e+04,7.769e+01,4.610e+01,1.168e+04
16.8,1.428e+04,6.614e+01,4.804e+01,1.440e+04
18.3,1.787e+04,7.617e+01,4.953e+01,1.799e+04
19.9,2.193e+04,8.360e+01,4.752e+01,2.206e+04
21.4,2.648e+04,8.943e+01,4.630e+01,2.662e+04
22.9,3.167e+04,9.551e+01,4.178e+01,3.181e+04
24.5,3.765e+04,1.167e+02,4.104e+01,3.781e+04
26.0,4.417e+04,1.320e+02,4.210e+01,4.434e+04
27.5,5.166e+04,1.561e+02,4.787e+01,5.186e+04
29.1,5.987e+04,1.753e+02,4.885e+01,6.009e+04
30.6,6.905e+04,1.937e+02,4.914e+01,6.930e+04
32.1,8.018e+04,2.253e+02,5.012e+01,8.046e+04
33.6,9.241e+04,2.469e+02,5.432e+01,9.271e+04
35.2,1.052e+05,2.564e+02,6.342e+01,1.055e+05
36.7,1.189e+05,2.737e+02,6.782e+01,1.192e+05
38.2,1.368e+05,3.125e+02,7.093e+01,1.372e+05
39.8,1.593e+05,3.842e+02,6.576e+01,1.597e+05
41.3,1.860e+05,4.407e+02,6.793e+01,1.865e+05
42.8,2.163e+05,5.389e+02,7.914e+01,2.169e+05
44.3,2.498e+05,6.709e+02,8.353e+01,2.506e+05
45.9,2.867e+05,8.255e+02,9.146e+01,2.876e+05
47.4,3.331e+05,1.062e+03,1.073e+02,3.343e+05
48.9,3.910e+05,1.368e+03,1.268e+02,3.925e+05
50.5,4.636e+05,1.734e+03,1.399e+02,4.655e+05
52.0,5.570e+05,2.047e+03,1.296e+02,5.592e+05
53.5,6.767e+05,2.413e+03,9.808e+01,6.792e+05
55.0,8.453e+05,3.051e+03,6.768e+01,8.484e+05
56.6,1.096e+06,4.621e+03,1.048e+02,1.101e+06
58.1,1.436e+06,7.451e+03,5.578e+02,1.444e+06
59.6,1.591e+06,8.254e+03,2.370e+03,1.601e+06
61.2,1.641e+06,6.708e+03,5.399e+03,1.653e+06
62.7,1.968e+06,6.731e+03,1.062e+04,1.985e+06
64.2,2.577e+06,9.293e+03,2.324e+04,2.610e+06
65.7,3.636e+06,1.506e+04,5.728e+04,3.708e+06
67.3,4.841e+06,2.520e+04,1.333e+05,5.000e+06
68.8,6.065e+06,3.880e+04,1.954e+05,6.300e+06
70.3,8.920e+06,5.935e+04,2.073e+05,9.186e+06
71.9,1.055e+07,6.698e+04,1.813e+05,1.080e+07
73.4,9.550e+06,5.801e+04,1.362e+05,9.745e+06
74.9,7.401e+06,3.492e+04,9.920e+04,7.535e+06
76.5,5.778e+06,1.977e+04,7.351e+04,5.872e+06
78.0,4.521e+06,1.137e+04,5.464e+04,4.587e+06
79.5,3.570e+06,7.146e+03,3.961e+04,3.617e+06
81.0,2.880e+06,5.227e+03,2.844e+04,2.914e+06
82.6,2.347e+06,5.552e+03,1.709e+04,2.370e+06
84.1,1.935e+06,6.859e+03,8.866e+03,1.950e+06
85.6,1.625e+06,8.809e+03,4.498e+03,1.638e+06
87.2,1.395e+06,1.122e+04,2.108e+03,1.408e+06
88.7,1.204e+06,1.351e+04,8.807e+02,1.218e+06
90.2,1.033e+06,1.498e+04,5.462e+02,1.048e+06
91.7,9.000e+05,1.515e+04,6.292e+02,9.158e+05
93.3,7.756e+05,1.602e+04,8.480e+02,7.925e+05
94.8,6.685e+05,1.899e+04,1.227e+03,6.887e+05
96.3,6.005e+05,2.525e+04,1.747e+03,6.275e+05
97.9,5.584e+05,4.058e+04,2.897e+03,6.019e+05
99.4,5.454e+05,5.861e+04,4.407e+03,6.084e+05
100.9,5.245e+05,5.915e+04,4.886e+03,5.886e+05
102.4,4.717e+05,5.084e+04,5.017e+03,5.275e+05
104.0,4.133e+05,4.494e+04,5.002e+03,4.633e+05
105.5,3.705e+05,3.587e+04,4.040e+03,4.105e+05
107.0,3.370e+05,2.673e+04,2.889e+03,3.666e+05
108.6,3.123e+05,2.443e+04,2.524e+03,3.393e+05
110.1,2.815e+05,2.493e+04,2.391e+03,3.088e+05
111.6,2.480e+05,2.234e+04,1.972e+03,2.723e+05
113.2,2.153e+05,1.918e+04,1.568e+03,2.360e+05
114.7,1.825e+05,1.448e+04,1.109e+03,1.981e+05
116.2,1.665e+05,1.059e+04,7.827e+02,1.779e+05
117.7,1.711e+05,9.517e+03,7.333e+02,1.813e+05
119.3,1.779e+05,8.133e+03,6.279e+02,1.866e+05
120.8,1.666e+05,7.508e+03,5.282e+02,1.746e+05
122.3,1.519e+05,7.492e+03,4.757e+02,1.598e+05
123.9,1.346e+05,9.031e+03,4.910e+02,1.441e+05
125.4,1.173e+05,1.050e+04,5.465e+02,1.283e+05
126.9,1.033e+05,4.961e+03,2.716e+02,1.086e+05
128.4,8.165e+04,2.653e+03,1.589e+02,8.446e+04
130.0,6.505e+04,2.769e+03,1.372e+02,6.796e+04
131.5,5.622e+04,3.441e+03,2.400e+02,5.990e+04
133.0,2.822e+04,1.576e+03,1.831e+02,2.997e+04
134.6,4.951e+03,2.243e+03,1.930e+02,7.387e+03
136.1,4.021e+03,3.129e+03,1.926e+02,7.343e+03
137.6,4.960e+03,1.842e+03,1.814e+02,6.983e+03
139.1,5.884e+03,2.691e+03,4.444e+02,9.019e+03
140.7,5.891e+03,3.298e+03,4.437e+02,9.633e+03
142.2,5.922e+03,3.315e+03,3.938e+02,9.631e+03
143.7,4.761e+03,3.456e+03,3.718e+02,8.589e+03
145.3,4.354e+03,3.496e+03,3.372e+02,8.188e+03
146.8,7.437e+03,3.384e+03,3.251e+02,1.115e+04
148.3,7.730e+03,2.674e+03,2.901e+02,1.069e+04
149.8,5.515e+03,2.031e+03,2.758e+02,7.822e+03
151.4,4.593e+03,1.771e+03,2.669e+02,6.630e+03
152.9,4.533e+03,1.639e+03,2.630e+02,6.435e+03
154.4,4.310e+03,1.460e+03,2.429e+02,6.013e+03
156.0,3.787e+03,1.347e+03,2.260e+02,5.360e+03
157.5,3.423e+03,1.359e+03,2.290e+02,5.011e+03
159.0,2.806e+03,1.405e+03,2.351e+02,4.446e+03
160.6,2.305e+03,1.427e+03,2.282e+02,3.960e+03
162.1,2.307e+03,1.456e+03,2.385e+02,4.002e+03
163.6,2.294e+03,1.509e+03,2.289e+02,4.032e+03
165.1,3.045e+03,1.682e+03,2.332e+02,4.960e+03
166.7,4.914e+03,2.018e+03,2.774e+02,7.210e+03
168.2,5.474e+03,1.969e+03,2.597e+02,7.703e+03
169.7,5.586e+03,1.727e+03,2.341e+02,7.548e+03
171.3,5.954e+03,1.738e+03,3.588e+02,8.050e+03
172.8,6.971e+03,1.723e+03,4.606e+02,9.155e+03
174.3,9.665e+03,1.726e+03,4.292e+02,1.182e+04
175.8,1.114e+04,1.672e+03,3.589e+02,1.317e+04
177.4,1.268e+04,1.636e+03,2.905e+02,1.461e+04
178.9,1.495e+04,1.717e+03,2.361e+02,1.691e+04
180.4,1.821e+04,2.065e+03,2.349e+02,2.051e+04
182.0,2.196e+04,2.305e+03,2.552e+02,2.452e+04
183.5,2.240e+04,2.242e+03,2.628e+02,2.491e+04
185.0,2.084e+04,2.119e+03,2.580e+02,2.322e+04
186.5,1.927e+04,2.163e+03,2.788e+02,2.172e+04
188.1,1.874e+04,2.209e+03,3.098e+02,2.126e+04
189.6,1.611e+04,2.164e+03,3.023e+02,1.858e+04
191.1,1.464e+04,2.026e+03,3.043e+02,1.697e+04
192.7,1.558e+04,2.074e+03,3.220e+02,1.798e+04
194.2,1.656e+04,2.052e+03,2.945e+02,1.890e+04
195.7,1.705e+04,1.931e+03,2.561e+02,1.924e+04
197.2,1.763e+04,2.105e+03,2.475e+02,1.999e+04
198.8,1.670e+04,2.432e+03,2.685e+02,1.940e+04
